0.270027	-0.416145	-0.049991	-0.231661	-4.523923	-4.661305	-4.690854	-4.585426	4.024034	4.177818	4.206835	4.206197	-2.072527	-2.100392	-1.849915	-2.139782
2.334062	2.811939	2.612408	2.941062	-0.358493	-0.302039	-0.400018	-0.354351	0.726814	0.830795	0.676257	0.866396	-2.683653	-2.747844	-2.591247	-2.793913
3.74646	3.708437	3.725025	3.791529	-2.536471	-2.810251	-2.861063	-2.598062	3.5838	3.649855	3.688657	3.786686	-3.191936	-3.095355	-3.125045	-3.139985
2.283526	2.746494	2.641961	2.76379	-1.655577	-1.743937	-1.74776	-1.726182	1.548857	1.674594	1.513989	1.555023	-3.803305	-3.80541	-3.741051	-3.886555
3.338723	3.622812	3.535562	3.572838	-1.29279	-1.45048	-1.422743	-1.354292	5.307129	5.462057	5.310947	5.350745	-6.861184	-7.031187	-6.520441	-7.036988
3.487753	3.568265	3.554671	3.589451	-1.792898	-1.883435	-1.813832	-1.808314	1.150119	1.250225	1.019383	1.065009	-4.146483	-4.061849	-4.003031	-4.112347
4.491214	4.410214	4.414163	4.459781	-2.288375	-2.347809	-2.310235	-1.657324	4.689537	4.960426	4.989259	4.812025	-5.807765	-5.999165	-5.830042	-5.984163
1.606233	1.46227	1.471661	1.463673	1.034403	1.03743	1.091417	1.0748	2.323916	2.318897	2.113687	2.197044	-0.946356	-0.96452	-0.924053	-0.931791
1.776974	1.6878	1.67208	1.712178	2.074893	2.082821	2.13243	2.099876	2.912644	2.895325	2.72485	2.824652	-2.457525	-2.451879	-2.289019	-2.489066
-1.048301	-1.126464	-1.188195	-1.27876	2.773202	2.902287	2.991015	2.782798	3.368711	3.353419	3.213502	3.334776	-1.620914	-1.671439	-1.480229	-1.724589
-0.487953	-0.675192	-0.634681	-0.621363	1.882806	2.022746	2.083184	1.893975	2.23718	2.234406	2.054081	2.46014	-3.712274	-3.786516	-3.561103	-3.829369
-2.967541	-2.814766	-2.976287	-2.829547	-0.234495	0.500341	0.212378	0.300986	4.858485	4.936718	4.862434	4.989294	-4.624845	-4.492196	-4.228528	-4.608611
-2.805295	-2.523228	-2.756856	-2.543376	2.275911	2.419218	2.342377	2.276157	4.041426	4.241912	3.893562	3.997136	-7.572392	-7.690636	-6.78319	-7.706403
-4.352287	-3.85012	-4.169539	-3.865608	0.6489	0.609628	0.618542	0.5197	2.489369	2.570729	2.429862	2.521387	-7.032932	-6.973473	-6.724881	-7.049066
-4.091309	-3.624632	-3.966652	-3.636777	2.794227	2.679581	2.856144	2.60192	4.142865	4.211732	3.820866	3.888921	-2.32278	-2.356655	-2.177997	-2.326081
-3.605206	-3.074674	-3.356585	-3.064427	3.188143	3.088219	3.226108	3.042516	2.807839	2.864961	2.747475	2.758798	-4.344504	-4.469238	-4.242799	-4.540526
-4.776061	-4.362191	-4.536943	-4.348153	3.03805	2.848567	2.965198	2.928692	4.748257	4.731361	4.737406	4.765272	-7.507938	-7.467189	-7.308864	-7.462742
-5.159589	-4.641	-4.779122	-4.584036	6.382059	6.438466	6.418433	6.360208	4.318242	4.355962	4.010231	4.039458	-5.82496	-5.610326	-5.530432	-5.518989
-2.703604	-2.523478	-2.552797	-2.484318	2.964429	2.970774	2.953658	2.883846	2.879742	2.839156	2.870644	2.992842	-4.966616	-4.966983	-4.929438	-4.970959
-1.667069	-1.608239	-1.549444	-1.545597	-0.423966	-0.353989	-0.47192	-0.434138	6.084995	6.073276	5.952736	6.035459	-5.694617	-5.530264	-5.569046	-5.528001
-1.048283	-0.650663	-1.026901	-0.802695	1.601707	1.647807	1.655852	1.534575	2.9629	2.977378	2.900113	2.952571	-3.301042	-3.45995	-3.339866	-3.462505
-0.275541	-0.107421	-0.084927	-0.055864	-0.437323	0.520615	0.565671	-0.217742	3.76204	3.833905	3.868397	3.865757	-0.803278	-0.941526	-0.901074	-0.816772
0.911232	1.076947	1.133402	1.091128	-1.252658	-1.371417	-1.388473	-1.222727	4.826477	4.918646	4.907856	4.793641	-4.311168	-4.511568	-4.310197	-4.507889
-0.473376	0.092336	0.000371	0.100882	-2.118356	-2.21291	-2.182889	-2.115406	3.001639	3.018452	2.901105	2.871172	-2.821766	-3.079007	-2.888604	-3.037384
1.477979	1.744416	1.711171	1.714537	-2.340483	-2.539585	-2.502651	-2.328965	0.653912	0.70865	0.72659	0.678043	0.301527	0.149957	0.347091	0.199789
0.578078	0.628638	0.632322	0.623354	-0.080384	-0.465846	-0.300617	0.338771	1.635044	1.716022	1.654962	1.646556	-1.845849	-2.016487	-1.802425	-2.003014
0.290241	0.037394	0.142304	0.068595	2.159818	2.404325	2.317242	2.200404	0.377343	0.509669	0.275405	0.322595	-4.829764	-4.993742	-4.716163	-5.044503
-1.314175	-1.727259	-1.599766	-1.690097	5.626699	5.47713	5.568425	5.560389	2.147337	2.261454	1.926319	2.009604	-6.861921	-7.084419	-6.636483	-7.138903
-2.300471	-2.644464	-2.586139	-2.677095	4.596618	4.163356	4.397318	4.432622	3.905092	3.989418	3.675118	3.795375	-9.259455	-9.48051	-8.900457	-9.536126
-2.85098	-3.127489	-3.198906	-3.259832	5.373485	5.009438	5.186417	5.213941	4.927408	5.003618	4.677055	4.834476	-9.528318	-9.823436	-9.205598	-9.801736
-3.814054	-3.978384	-4.095859	-4.184246	8.196068	8.002719	8.105019	8.094782	3.52419	3.572232	3.228321	3.391438	-9.905501	-10.019001	-10.46246	-10.020694
-6.07018	-6.328902	-6.267219	-6.308251	7.643641	7.577359	7.60169	7.53606	8.824409	8.308018	8.926345	8.876585	-12.900759	-13.206307	-12.616342	-13.27049
-8.342085	-8.493792	-8.529149	-8.523463	5.30274	5.242728	5.387067	5.138018	5.554164	5.634611	5.277025	5.335716	-10.832221	-11.174883	-10.435268	-11.158137
-7.885226	-8.107317	-8.096305	-8.091683	6.955094	7.041542	7.117655	6.908632	4.245846	4.250977	3.985547	4.100196	-6.865996	-7.145514	-6.698723	-7.08694
-7.220944	-7.341959	-7.396118	-7.349276	7.197227	7.47198	7.353744	7.262083	0.782081	0.683922	0.583199	0.712475	-2.4402	-2.670698	-2.225199	-2.588314
-9.039874	-8.764943	-8.998752	-8.797585	4.534662	4.551952	4.552127	4.464996	6.776471	6.418536	6.966546	7.011313	-5.187394	-5.372152	-4.965301	-5.345922
-8.993139	-8.510011	-8.842952	-8.570118	4.969677	4.887214	4.932851	4.886481	3.688362	3.789695	3.498015	3.588969	-6.106302	-6.499594	-6.100539	-6.467733
-8.166862	-7.581791	-7.977598	-7.632597	6.83649	7.03339	6.91257	6.797102	0.547534	0.589996	0.412619	0.542608	-2.205201	-2.389217	-2.147309	-2.323437
-9.903509	-9.243248	-9.65077	-9.291945	3.920968	3.82448	3.846507	4.135453	3.036362	3.160857	2.809363	2.976653	-4.193729	-4.32447	-4.097502	-4.327053
-9.478005	-8.741707	-9.194487	-8.804663	6.299	6.197464	6.297455	6.17306	0.600512	0.784085	0.330314	0.453141	-5.028903	-5.367896	-5.180704	-5.308363
-9.321608	-9.242484	-9.676386	-9.323976	8.392515	8.499063	8.435865	8.323598	-2.33156	-1.632151	-2.318878	-2.123441	-2.597666	-2.594554	-2.474882	-2.574195
-6.698134	-6.121318	-6.512779	-6.308102	1.384082	1.306749	1.217367	1.216467	0.595343	0.727589	0.514886	0.671307	-0.494261	-0.689686	-0.452575	-0.621524
-6.160373	-5.529905	-5.933554	-5.541026	0.435672	0.207359	0.184521	0.29213	4.124514	4.24979	4.100457	4.192339	-6.464633	-6.669331	-6.394701	-6.648125
-6.012937	-5.347677	-5.734774	-5.315171	0.0364	-0.232459	-0.270953	-0.102777	2.294521	2.419283	2.206995	2.299833	-5.505338	-4.919528	-4.914513	-4.899972
-6.404415	-5.624171	-6.062438	-5.609023	2.394856	2.041444	2.14532	2.21167	-0.496652	-0.315705	-0.607364	-0.575106	-3.046087	-3.223884	-3.037511	-3.143205
-5.312777	-4.630712	-5.055242	-4.585979	2.929699	2.72854	2.674983	2.81962	1.464518	1.512175	1.433188	1.579688	-0.404829	-0.567722	-0.422796	-0.430842
-6.225131	-5.677837	-6.029853	-5.637782	-0.441224	0.025438	-0.163628	-0.403576	0.287781	0.44297	0.21633	0.238876	-1.015609	-1.061789	-1.009171	-0.945943
-3.661907	-3.446285	-3.374714	-3.548759	2.4995	2.487789	2.418057	2.374324	-0.859574	-0.793108	-0.820194	-0.724252	-1.322966	-1.060296	-0.973971	-1.052499
-5.805199	-5.371962	-5.533201	-5.292142	1.388027	1.557245	1.446091	1.321795	2.358471	2.49293	2.241863	2.340927	-2.543718	-2.633984	-2.382161	-2.599879
-4.352301	-4.089405	-4.127231	-3.968991	1.389202	1.283443	1.30395	1.227508	0.722001	0.961222	0.629102	0.687963	2.57061	2.539225	2.684158	2.63307
-1.297249	-1.179458	-1.164473	-1.045499	4.928742	5.090409	4.966351	4.912388	-0.081678	-0.088724	-0.034849	0.125383	-3.367151	-3.347972	-3.050614	-3.358459
0.295852	0.25143	0.350216	0.395437	-0.396514	-0.39551	-0.508584	-0.486322	3.109067	3.192417	3.029867	3.170622	-2.538707	-2.702802	-2.490273	-2.698523
0.210252	0.037096	0.194163	0.189611	-0.030148	0.903122	0.562005	0.334016	2.944402	3.088915	2.871058	2.940946	-3.653339	-3.325849	-3.401285	-3.303875
-0.131063	-0.028229	0.008786	0.096427	1.908934	1.816374	1.785805	1.806201	0.635275	0.858017	0.699834	0.529285	-0.836036	-1.09244	-1.033305	-1.004701
1.719858	1.81647	1.853126	1.938305	-1.885188	-1.97587	-1.917253	-2.063796	-1.678547	-1.612775	-1.815721	-1.726074	-2.937351	-3.186162	-2.347318	-3.112623
3.136585	3.206733	3.26593	3.278221	-4.611101	-4.201953	-4.356571	-4.502648	1.242724	1.309868	1.366823	1.417955	-1.07692	-1.204135	-1.001216	-1.188026
3.38225	3.511515	3.540367	3.5518	0.727705	0.701677	0.664224	0.717277	-0.439206	-0.413201	-0.396262	-0.304562	-1.779455	-1.224549	-1.145505	-1.190395
3.867352	4.153062	4.140327	4.17153	0.35972	0.30975	0.20934	0.351322	3.241192	2.92089	3.542029	3.398102	-2.78969	-3.024381	-2.767803	-3.038606
4.017529	4.509686	4.433008	4.485504	-0.221969	-0.372682	-0.361702	-0.374091	3.083367	3.172329	2.903324	2.94158	-1.174113	-1.322849	-1.117749	-1.343585
3.473588	4.241822	4.060352	4.169025	1.707043	1.612453	1.711149	1.589533	-0.272305	-0.159684	-0.414493	-0.387092	-0.352465	-0.477903	-0.384549	-0.479151
3.047508	3.707168	3.51832	3.640666	-2.443317	-2.564067	-2.600797	-2.472787	2.387773	2.487768	2.424143	2.545711	-3.470384	-3.647095	-3.510983	-3.673439
3.328802	3.643562	3.569804	3.601262	-3.253852	-3.397414	-3.355416	-3.387646	3.374464	3.450725	3.367001	3.454173	-0.834327	-0.85828	-0.63717	-0.860418
1.337449	1.0582	1.244809	1.115879	-2.534842	-2.549561	-2.56359	-2.569854	5.71353	5.791033	5.837794	5.915862	-4.079358	-3.999228	-3.652932	-4.072698
3.451064	3.405092	3.393133	3.453898	-1.141864	-1.39803	-1.312209	-1.260468	7.253631	7.318957	7.088155	7.188472	-7.114528	-7.104642	-6.648228	-7.21279
-1.787146	-2.395238	-2.103662	-2.15573	0.49189	0.370196	0.4783	0.470163	6.641545	6.645417	6.450682	6.582176	-5.941534	-6.008234	-5.52667	-6.082881
1.421519	1.429214	1.2753	1.412148	1.331786	1.342057	1.45361	1.299165	7.985757	8.051856	7.851563	8.033967	-9.293271	-9.441239	-8.899652	-9.51462
-0.059794	-0.403815	-0.313796	-0.300675	3.617262	3.594827	3.62483	3.530577	6.13752	5.698805	6.434135	6.366067	-4.952157	-5.056549	-4.528567	-5.054304
-2.652707	-2.933284	-2.840823	-2.793613	0.269174	0.239191	0.356288	0.102282	3.025356	3.008455	2.372047	2.744812	-6.182849	-6.354778	-5.847554	-6.352465
-3.0981	-3.246795	-3.365702	-3.379997	-0.423126	-0.51636	-0.413532	-0.530112	5.877863	6.017356	5.969003	5.972622	-6.556339	-6.685842	-6.127327	-6.730306
-2.13029	-2.722726	-2.454228	-2.521193	-0.092647	-0.226321	-0.174126	-0.209398	6.403594	6.476315	6.302611	6.441557	-7.449493	-7.654506	-7.147464	-7.649801
-5.176761	-5.589831	-5.460945	-5.48853	0.895809	0.674356	0.840704	0.723125	5.191493	5.342348	5.090944	5.172814	-9.491244	-9.423821	-9.067757	-9.472421
-4.028367	-4.44252	-4.412843	-4.493884	5.360821	5.221819	5.294965	5.222691	-0.184079	-0.013853	-0.292981	-0.206899	-3.609995	-3.721348	-3.344188	-3.689813
-4.032118	-4.513008	-4.367192	-4.381188	1.731057	1.643137	1.741885	1.601208	3.469733	3.580308	3.41403	3.408518	-3.232206	-3.146184	-4.034948	-3.160151
-1.733449	-3.044144	-2.105412	-3.105318	3.193303	3.238688	3.191581	3.129736	1.018935	1.056292	1.09642	1.16358	-5.647726	-5.81578	-5.500435	-5.780343
-6.096471	-6.328731	-6.339904	-6.255654	2.309772	2.317958	2.244235	2.172807	6.025212	6.076996	6.054567	6.099343	-6.798039	-6.875412	-6.543496	-6.905676
-6.7584	-6.809495	-6.894777	-6.741457	0.034099	-0.185056	-0.271326	-0.168245	7.45126	7.534497	7.574062	7.627692	-5.518289	-5.531665	-5.217678	-5.548649
-6.337952	-6.372985	-6.466444	-6.321208	-2.930339	-3.007992	-3.038877	-3.155698	6.550385	6.540295	6.665614	6.702632	-2.813295	-2.798675	-2.505627	-2.77356
-6.714689	-6.70909	-6.819069	-6.647818	-3.050967	-3.414227	-3.361078	-3.240533	10.609103	10.626104	10.792614	10.773465	-3.498294	-3.445247	-3.14601	-3.450262
-3.976024	-5.768719	-5.352819	-5.693022	-5.182018	-5.285879	-5.287769	-5.441606	8.480368	8.406123	8.586162	8.514384	-1.532017	-1.448298	-1.196814	-1.408567
-5.923983	-5.929171	-6.058585	-5.886334	-4.944853	-5.038473	-5.025451	-5.191319	9.243294	9.296228	9.511898	9.415334	-2.68534	-2.571761	-2.280546	-2.552848
-6.163612	-5.995494	-6.150725	-5.94224	-4.778263	-5.283498	-5.07898	-5.125755	11.344066	11.441677	11.533683	11.53424	-2.741723	-2.591506	-2.320143	-2.60062
-5.22424	-5.10771	-5.198942	-4.972973	-5.078511	-5.532693	-5.427328	-5.319572	11.970531	11.993937	12.11004	12.094219	-1.780254	-1.660196	-1.429359	-1.684547
-2.89378	-3.167836	-3.018069	-2.887565	-8.152862	-8.47324	-8.324803	-8.468139	11.724674	11.66347	11.956406	11.917276	-0.461071	-0.255203	-0.035253	-0.413507
-2.869624	-3.346472	-2.953582	-2.960531	-6.1269	-6.569926	-6.301794	-6.524573	6.441229	6.456446	6.324025	6.263438	-3.648917	-3.553145	-3.308785	-3.738374
-4.047047	-4.447295	-4.012489	-4.033624	-7.062056	-7.675711	-7.327495	-7.369606	8.52611	8.533357	8.433263	8.419159	-5.723941	-5.753763	-5.652735	-5.94866
-1.62302	-2.282109	-1.588777	-1.774774	-7.426039	-8.006256	-7.68808	-7.683021	6.121947	6.001463	6.15563	6.16022	-1.881359	-1.866908	-1.690708	-2.079533
-0.666943	-1.490386	-0.638057	-0.930046	-5.984097	-6.707562	-6.360845	-6.309799	8.165294	8.009156	8.198761	8.246578	-3.357611	-3.446444	-3.318161	-3.706803
-0.413373	-1.143639	-0.298718	-0.58562	-5.476127	-6.191761	-5.65935	-5.787176	9.499275	9.412887	9.354483	9.383759	-4.895502	-5.052452	-5.036501	-5.258311
2.58112	1.533198	2.57602	2.134864	-6.416055	-7.122274	-6.669854	-6.729	8.949453	8.774813	8.936337	9.029194	-2.411588	-2.528074	-2.45513	-2.82585
2.486533	1.282905	2.427592	1.919899	-6.032521	-6.711623	-6.326971	-6.385191	9.156399	8.976986	9.166034	9.210406	-2.102964	-2.355079	-2.336853	-2.613551
2.270595	1.39028	2.186777	1.801353	-5.473264	-6.249159	-5.658274	-5.797037	5.865952	5.723482	5.561663	5.647274	-2.327372	-2.532354	-2.441442	-2.766973
3.100164	2.07022	3.139482	2.691208	-7.215779	-7.9863	-7.477383	-7.471259	8.313973	8.260454	8.279415	8.588952	-5.318654	-5.538005	-5.35806	-5.785751
3.890882	2.98691	3.994685	3.579765	-6.821943	-7.573488	-7.029794	-7.124972	6.973942	6.960789	7.018667	7.136904	-4.072461	-4.225522	-3.87814	-4.486598
3.176648	2.499618	3.372574	3.066914	-6.364795	-7.143007	-6.561326	-6.748024	9.334202	9.095067	9.364673	9.510291	-7.251084	-7.130009	-6.656323	-7.494275
4.934064	4.265542	5.153442	4.83048	-4.4635	-5.231431	-4.723777	-4.848048	6.625491	6.546768	6.495972	6.530116	-5.478536	-5.694154	-5.273314	-5.949697
5.259309	4.651221	5.51887	5.221316	-6.93271	-7.691952	-7.113501	-7.341354	8.313481	8.173152	8.203781	8.257054	-4.336825	-4.617111	-5.0598	-4.81423
4.989601	4.505071	5.311273	5.054904	-6.0317	-6.878353	-6.234261	-6.464988	7.804024	7.507999	7.792977	7.962658	-6.296503	-6.422142	-6.001462	-6.714274
5.381986	4.951727	5.747688	5.495009	-5.446627	-6.189324	-5.747313	-5.740747	8.441031	8.15501	8.373244	8.530374	-7.578139	-7.877436	-7.384658	-8.067789
3.6048	3.468203	4.147369	3.995463	-6.017085	-6.802384	-6.167041	-6.432028	6.107165	5.928746	5.864559	5.940111	-1.794089	-2.108322	-2.801013	-2.330666
2.987034	2.657406	3.406049	3.144809	-4.787691	-5.586587	-4.936058	-5.21789	5.25391	5.557953	5.412013	5.510047	-3.57402	-3.997385	-3.559806	-4.199903
3.512005	3.806936	4.33908	4.300349	-4.536124	-5.232544	-4.792779	-4.773331	10.092584	9.81842	9.95246	10.11892	-6.675209	-7.038006	-6.657171	-7.206911
2.524582	3.123145	3.508776	3.546433	-4.49167	-5.216724	-4.570767	-4.87499	6.952219	6.663781	6.806576	6.924635	-5.281081	-5.623869	-5.211985	-5.771596
1.789386	2.508319	2.804018	2.878738	-3.704294	-4.425246	-3.708593	-4.146954	5.035108	4.792958	4.812727	4.974613	-1.792385	-2.072694	-1.737781	-2.279136
3.621744	3.803744	4.355564	4.166847	-1.791914	-2.519644	-1.834385	-2.344367	6.29653	6.134634	5.996969	6.132738	-2.734808	-3.157576	-2.952603	-3.329171
2.274923	2.460578	2.89173	2.775446	-2.463593	-3.161964	-2.644914	-2.877417	5.624583	6.013527	5.829347	6.001045	-3.790412	-4.123295	-3.766826	-4.32768
-0.067283	0.328689	0.57403	0.643666	-3.517719	-4.230877	-3.767305	-3.811448	8.054549	7.735979	7.951941	8.251413	-3.917937	-4.098622	-3.588804	-4.381595
0.374974	0.631929	0.91521	0.98957	-2.759748	-3.63118	-3.001488	-3.041824	8.506851	8.238648	8.205095	8.566962	-5.105751	-5.328738	-4.7433	-5.591377
-0.031807	0.103862	0.44764	0.47621	-3.477144	-4.185913	-3.661182	-3.691382	10.599588	9.516258	10.584987	10.901616	-8.441461	-8.707543	-8.104001	-8.95746
0.061918	-0.011697	0.420718	0.409006	-3.261425	-3.986281	-3.416474	-3.585445	7.491405	7.218941	7.302273	7.538735	-6.036911	-6.22026	-5.691703	-6.509609
-0.118306	-0.410343	0.099843	0.055587	-3.549402	-4.302373	-3.692479	-3.946253	7.168387	6.974586	6.951872	7.154068	-6.430055	-6.578517	-6.193468	-6.878246
-0.129267	-0.548044	0.012948	-0.068206	-5.225147	-6.020219	-5.478484	-5.649647	6.588013	6.445779	6.419964	6.569686	-4.328436	-4.651548	-4.344521	-4.89631
1.779762	0.327096	1.537344	0.96166	-6.162559	-6.968495	-6.326589	-6.611526	5.705738	5.462505	5.313574	5.496709	-4.648637	-4.939728	-4.595183	-5.147307
1.319615	-0.590648	0.820983	-0.032258	-3.053743	-3.873587	-3.268931	-3.387285	6.920702	6.757048	6.811207	6.99717	-3.490306	-3.835809	-3.551167	-4.049159
1.751308	0.47564	1.464326	0.889687	-4.699743	-5.497793	-4.990785	-5.014463	9.054191	8.843891	8.861817	9.055004	-6.171191	-6.449244	-6.20181	-6.677652
-0.041793	-1.21254	-0.298477	-0.735038	-5.791204	-6.631105	-6.030575	-6.121276	6.306682	6.161012	6.099424	6.242241	-6.18453	-6.395963	-6.037538	-6.659818
2.113954	1.17636	2.029949	1.631127	-1.203307	-2.026056	-1.429265	-1.532536	4.142885	4.106524	4.024197	4.437479	-2.259328	-2.449939	-2.026723	-2.720815
2.235349	1.416939	2.199737	1.838807	-3.709728	-4.518389	-3.838552	-4.058428	3.289707	3.08297	3.026914	3.264744	-2.808206	-3.022598	-2.510136	-3.282306
1.394982	0.365461	1.252318	0.784499	-2.862154	-3.633993	-3.095063	-3.145264	5.328549	5.055507	5.25874	5.543414	-4.96373	-5.106702	-4.64584	-5.43214
-1.557509	-2.408831	-1.699973	-2.038545	-4.825037	-5.699024	-4.99568	-5.211163	6.119694	6.082483	5.965882	6.033835	-5.432127	-5.754928	-5.393863	-6.003788
-1.982503	-2.950582	-2.096665	-2.54707	-1.384503	-2.25503	-1.603574	-1.747289	2.393754	2.214624	2.221113	2.369811	0.696261	0.345584	0.704858	0.142636
-5.824254	-6.67876	-5.897671	-6.334874	-2.087522	-2.944922	-2.362013	-2.450715	5.141248	5.012408	5.050824	5.180427	-3.042266	-3.203352	-2.836667	-3.515586
-4.036075	-4.878413	-4.094218	-4.539944	-3.095655	-3.636391	-2.83865	-3.49353	5.88382	5.782898	5.837262	5.926333	-1.316705	-1.579901	-1.242568	-1.81873
-1.889765	-2.554227	-1.991599	-2.227595	-2.23512	-3.049712	-2.542602	-2.597344	5.920002	5.764759	5.90445	5.963926	-5.489555	-5.816718	-5.436025	-6.045543
-4.46929	-4.995517	-4.458273	-4.634059	-0.884443	-1.631225	-1.066484	-1.278607	7.680306	7.464463	7.603437	7.687619	-6.426507	-6.677474	-6.240172	-6.887487
-7.025453	-7.326358	-6.97647	-7.115193	-0.092234	-0.729058	-0.192343	-0.50172	8.726864	8.526954	8.635407	8.731775	-5.63539	-5.785938	-5.235414	-5.996842
-8.536122	-8.704214	-8.4492	-8.53436	0.993512	0.474267	0.982373	0.606726	9.448873	9.222299	9.270758	9.39545	-6.705621	-6.895241	-6.887875	-7.061024
-9.86759	-9.939641	-9.794865	-9.834215	1.710151	1.337157	1.779631	1.377826	10.366317	10.130679	10.150339	10.305041	-7.650029	-7.782489	-7.11204	-7.90594
-10.481675	-10.499402	-10.409648	-10.428955	2.566347	2.303219	2.700744	2.275122	11.362884	11.100971	11.096091	11.299342	-9.721912	-9.789017	-9.067561	-9.916078
-10.324718	-10.290937	-10.275445	-10.252925	3.502901	3.379798	3.713085	3.290271	10.468925	10.768624	10.375597	10.603575	-11.990119	-12.154072	-11.457502	-12.210343
-10.495446	-10.414567	-10.436307	-10.373404	2.602714	2.51577	2.739295	2.415919	12.355516	12.136666	12.067314	12.300493	-10.740079	-10.821478	-10.085961	-10.880663
-11.417149	-11.235427	-11.301355	-11.183033	3.901889	3.904714	4.126694	3.770766	10.951825	10.734684	10.58484	10.834921	-12.028956	-12.116116	-11.401777	-12.185275
-11.935388	-11.732614	-11.843916	-11.795855	1.307743	1.498281	1.564458	1.19948	11.475501	11.302938	11.056282	11.312964	-10.911467	-11.05547	-10.496372	-11.064448
-11.042705	-10.930759	-11.078361	-11.002768	3.572521	3.450509	3.775221	3.416075	10.211878	10.13361	9.686111	9.913245	-11.720172	-12.029442	-11.522321	-12.035246
-9.966542	-9.695857	-9.879081	-9.735135	3.653066	3.50571	3.703791	3.591981	8.592268	8.504573	8.087746	8.379654	-7.622279	-7.803857	-7.415092	-7.790623
-11.127125	-10.550196	-10.926572	-10.647727	5.779457	5.857737	5.905456	5.807575	3.715764	3.611266	3.207827	3.442908	-4.655477	-5.015848	-4.510524	-4.877978
-11.907756	-11.234465	-11.653489	-11.327916	4.858871	4.700867	4.924515	4.758452	4.820217	4.68517	4.347166	4.676827	-6.97213	-7.104634	-6.658439	-7.079249
-11.117669	-10.578584	-10.934132	-10.671422	5.686484	5.647542	5.798628	5.677014	6.71118	6.637192	6.210398	6.421847	-8.006056	-8.383018	-7.437918	-8.214703
-10.1777	-9.561417	-9.973448	-9.671469	6.431882	6.622099	6.539021	6.540486	3.974724	3.821323	3.605414	3.872625	-4.487934	-4.444634	-4.171227	-4.373608
-11.708249	-10.988323	-11.455963	-11.102273	3.939719	4.009792	4.086502	3.9834	6.068768	6.045861	5.636285	5.90806	-5.440048	-5.684064	-5.412457	-5.597674
-10.647276	-10.120447	-10.486583	-10.216454	6.462952	6.671636	6.776784	6.531838	3.919075	3.848514	3.495953	3.842031	-2.7821	-2.872519	-2.665496	-2.788788
-10.040798	-9.639519	-9.946634	-9.735046	5.03844	5.319088	5.351172	5.147736	3.001639	3.079072	2.745452	2.800427	-3.541606	-3.623507	-3.675471	-3.486589
-7.537812	-7.180624	-7.495969	-7.28472	6.286399	6.483811	6.511456	6.381577	3.320484	3.296833	2.926066	3.216501	-4.170416	-4.324954	-4.133132	-4.219212
-8.212455	-7.64744	-8.039225	-7.761301	5.275347	5.62507	5.432577	5.512335	2.4758	2.5365	2.234636	2.466637	-3.219799	-3.331611	-3.130396	-3.244457
-8.101051	-7.363904	-7.85293	-7.489437	4.665999	4.882418	4.723549	4.779141	1.196426	1.248685	1.048821	1.25048	-3.097332	-3.245157	-2.987418	-3.195453
-9.618207	-8.902781	-9.403437	-9.055128	5.005008	5.173375	5.064185	5.050608	1.834173	1.97939	1.524985	1.674758	-2.697086	-2.871632	-2.618458	-2.814007
-8.704177	-8.020776	-8.471729	-8.15376	3.899693	3.884544	4.020358	3.837037	-1.573197	-1.465999	-1.925237	-1.767059	0.354418	0.238924	0.454991	0.303628
-8.129867	-7.430983	-7.901859	-7.56564	1.685194	2.787628	2.431936	2.246226	3.073599	3.236796	2.893155	3.088284	-4.955177	-5.222265	-4.90702	-5.232075
-7.497865	-6.712877	-7.246993	-6.85383	3.86747	3.739117	3.838224	3.832553	1.794718	2.082617	1.910409	1.824253	-3.505124	-3.841887	-2.940793	-3.74349
-6.79603	-5.942824	-6.495617	-6.085269	3.869595	3.940871	3.854793	3.918477	1.572516	1.718874	1.376218	1.508483	-0.811406	-0.979871	-0.792998	-0.878435
-6.424044	-5.506046	-6.098836	-5.650348	4.194072	4.130561	4.141597	4.208715	-0.39947	-0.236101	-0.633847	-0.48848	2.140143	2.148694	2.289748	2.259182
-5.003603	-4.10211	-4.702474	-4.242957	0.397907	0.260637	0.308885	0.311294	0.315713	0.404385	0.264644	0.331285	-1.957799	-1.952821	-1.662061	-1.827841
-5.927701	-4.930954	-5.565628	-5.08959	-0.178597	-0.37546	-0.393908	-0.250383	0.525588	0.571091	0.42951	0.575126	-0.036104	-0.104448	0.101233	-0.013613
-5.44351	-4.421778	-5.083314	-4.574091	2.321438	2.0304	2.147593	2.256438	-0.381247	-0.219277	-0.475474	-0.422852	-0.612921	-0.661294	0.176176	-0.525299
-4.448184	-3.458024	-4.100639	-3.596864	5.559034	5.345541	5.4213	5.551219	-3.123781	-2.931256	-3.193274	-3.115377	-0.97971	-1.063943	-0.997587	-0.997112
-3.089283	-2.311635	-2.865294	-2.442705	-0.096329	-0.369315	-0.336012	-0.110333	2.107906	2.317819	2.158787	2.213696	-4.289189	-3.763672	-3.821007	-3.707828
-0.671656	-0.054588	-0.625247	-0.172022	1.478013	1.301196	1.248761	1.442365	1.434176	1.626649	1.451701	1.500342	-3.695015	-3.819753	-3.562403	-3.851433
-0.987423	-0.351231	-0.93538	-0.463403	0.577716	0.451978	0.388492	0.472441	-1.254901	-1.122171	-1.551886	-1.424407	-1.926921	-2.215424	-2.042534	-2.16908
-4.25703	-3.635797	-4.132802	-3.731434	-2.02574	-2.261117	-2.307584	-2.089364	-2.368804	-2.347884	-2.400946	-2.250711	0.752968	0.636911	0.917153	0.680888
1.853434	1.843696	2.002593	1.676099	-2.628958	-2.808166	-2.873974	-2.837135	-3.307158	-3.263787	-3.514617	-3.473637	-1.773986	-1.928265	-1.556645	-1.927243
-2.008456	-1.43868	-1.765882	-1.496792	-5.186768	-5.314064	-5.433576	-5.338841	-1.794372	-1.760378	-1.974833	-1.857855	-2.120921	-2.25919	-1.878689	-2.295411
-0.540364	-0.140685	-0.376226	-0.202626	-6.076609	-6.286708	-6.298167	-6.238157	2.554527	2.499103	2.369942	2.520098	-3.455844	-3.540696	-3.083711	-3.602417
2.566614	2.91343	2.711713	2.857169	-3.212437	-3.247337	-3.330764	-3.32632	0.916175	0.878721	0.834749	1.006074	-5.868769	-5.975381	-5.577216	-5.987582
1.618885	1.915871	1.751667	1.844147	-6.308673	-6.387323	-6.486025	-6.486333	2.660597	2.566714	2.844718	2.933584	-5.322306	-5.311942	-4.86448	-5.350058
1.412783	1.721982	1.594123	1.671429	-5.815364	-5.962459	-5.994138	-5.96966	3.545277	3.47371	3.772811	3.802871	-3.113718	-3.122222	-2.630333	-3.09529
6.783491	7.090628	6.9337	7.007413	-6.140385	-6.348534	-6.38925	-6.34149	4.603013	4.58991	4.686199	4.683078	-7.055552	-7.004636	-6.538531	-7.032627
4.71574	5.199616	4.991811	5.120299	-8.929774	-9.28369	-9.241559	-9.162836	8.374934	8.37541	8.376711	8.423449	-7.942148	-8.168664	-7.088678	-8.080031
1.749131	2.121148	1.981001	2.072391	-3.260649	-3.471873	-3.395944	-3.420198	7.736889	7.767867	7.653357	7.681418	-7.729249	-7.613002	-7.329248	-7.625052
2.298487	2.525915	2.443821	2.431701	-2.637198	-2.914027	-2.709052	-2.819874	5.165206	5.202079	4.774047	4.845719	-7.518929	-7.653671	-7.325997	-7.609562
6.001876	4.840734	4.842264	4.774561	-0.016989	-0.021914	0.026467	-0.09893	2.047187	2.174548	1.906422	1.911402	-2.486689	-2.374921	-2.144543	-2.317568
2.658063	2.894613	2.821228	2.819388	1.425006	1.184216	1.321363	1.293689	2.010194	2.110101	1.913077	1.96858	-0.733344	-0.855911	-0.613011	-0.689617
7.721228	7.960775	7.873185	7.901987	-0.720287	-0.927289	-0.918038	-0.861257	4.527757	4.556808	4.311815	4.412481	-2.3189	-2.420762	-2.13947	-2.331851
1.77768	2.233571	2.089505	2.154617	-4.406407	-4.653046	-4.544895	-4.51264	7.927287	7.877553	7.732772	7.875349	-6.254695	-6.027744	-5.819835	-5.926746
3.086343	3.420728	3.323261	3.3485	-3.502012	-3.777605	-3.722542	-3.526567	4.875739	4.794379	4.614787	4.734094	-2.747013	-2.965527	-2.709065	-2.844126
4.264757	4.503955	4.440763	4.45236	-5.438009	-5.005532	-4.906725	-5.337593	4.329394	4.209497	4.107459	4.214176	-3.531783	-3.677236	-3.326768	-3.623242
4.827588	4.908433	4.882853	4.84379	-6.359824	-6.762157	-6.703754	-6.339951	2.871963	2.761003	2.74871	2.801834	-0.725129	-0.994922	-0.112463	-0.813549
5.989586	5.991539	6.000966	5.926498	-7.714469	-8.19847	-8.099666	-7.701587	2.455928	2.40119	2.481077	2.482059	0.254162	0.137293	0.315249	0.296332
6.454571	6.27921	6.246914	6.186134	-8.232757	-8.813439	-8.646586	-8.269332	3.589901	3.532683	3.70062	3.674765	1.291796	1.196618	1.3572	1.359003
6.40668	6.15529	6.110055	6.060612	-9.455537	-10.04997	-9.886193	-9.502039	3.368298	3.32826	3.544712	3.441199	4.09697	4.063118	4.196136	4.254283
5.112107	4.993943	4.88136	4.889005	-9.999205	-10.590013	-10.400012	-10.131609	5.030599	5.021849	5.252048	5.158978	2.766726	2.825484	2.982504	2.949397
4.136156	4.133966	3.960754	4.022835	-10.263526	-10.985711	-10.739713	-10.541595	4.450037	4.403488	4.520199	4.459101	4.784959	4.956575	5.20572	5.089156
2.609989	2.70298	2.472397	2.580671	-8.560468	-9.320523	-9.066728	-8.817745	7.051862	7.088644	7.431644	7.347528	-0.247987	0.002426	0.260322	0.004226
4.036313	4.28111	3.989836	4.172284	-11.315909	-11.839453	-11.617186	-11.577476	7.776956	7.805786	8.042836	7.904446	-2.640504	-2.464863	-2.248189	-2.494638
1.005927	1.490921	1.100345	1.381973	-7.385227	-8.019033	-7.676593	-7.637211	8.332679	8.465465	8.319812	8.212839	-4.669505	-4.680566	-4.503365	-4.672635
-0.385645	0.250657	-0.232503	0.131612	-2.980945	-3.382396	-3.128556	-3.212711	3.864601	3.908196	3.866165	3.851328	-1.746416	-1.632262	-1.487294	-1.604077
-2.530701	-1.738972	-2.281289	-1.852191	-3.292111	-3.602271	-3.42766	-3.485619	5.175539	5.212198	5.01788	5.002317	-3.275316	-3.411554	-3.170432	-3.371993
-4.073629	-3.143847	-3.750434	-3.260712	-2.646161	-3.222711	-2.875568	-2.908886	6.727676	6.827853	6.42136	6.443242	-7.638693	-7.720751	-7.695414	-7.702144
-4.275179	-3.268465	-3.923161	-3.381312	1.024936	0.792694	1.009349	0.857335	4.091031	4.096238	3.884687	3.977325	-4.971459	-4.749371	-4.701458	-4.741832
-6.994167	-6.116094	-6.682537	-6.237275	-1.156365	-1.372032	-1.032815	-1.371398	4.183298	4.251407	3.76846	3.911184	-3.220699	-3.253883	-3.991968	-3.199779
-7.419644	-6.751754	-7.204553	-6.843844	-0.260898	-0.290414	-0.055889	-0.357801	3.484959	3.54123	3.193	3.427778	-5.701776	-5.688389	-5.354631	-5.72738
-5.398962	-4.832874	-5.276047	-4.928908	-1.984643	-2.099755	-2.002015	-2.007607	5.431769	5.49134	5.206155	5.351058	-7.034698	-7.233416	-6.856774	-7.206983
-7.652066	-7.055055	-7.471683	-7.132683	-0.887444	-1.098343	-0.980866	-0.953386	4.148303	4.258359	3.921548	4.05945	-4.027528	-4.078301	-3.770552	-4.041272
-7.691271	-7.264217	-7.593055	-7.328723	1.699249	1.614553	1.858376	1.590082	2.357062	2.46685	2.110593	2.214422	-5.532915	-5.816718	-5.5304	-5.752209
-7.560063	-7.28832	-7.550997	-7.334002	0.304444	0.158355	0.310191	0.252358	-0.496979	-0.367051	-0.791498	-0.714836	-4.370323	-4.608703	-4.321355	-4.502772
-6.54243	-6.434881	-6.603603	-6.521885	1.438889	1.215952	1.404905	1.336223	0.050628	0.220941	-0.171325	-0.04873	-2.10604	-2.309685	-2.053229	-2.208562
-5.856213	-5.913847	-5.994876	-5.904419	7.229483	7.153303	7.269357	7.155944	-3.596596	-3.37947	-3.694646	-3.599777	0.495892	0.173934	0.470439	0.230883
-4.730605	-4.844113	-4.881975	-4.859509	3.714687	3.760245	3.719328	3.643168	-0.671826	-0.573781	-0.620813	-0.549445	-2.987172	-2.958099	-2.833066	-2.840466
-5.326777	-5.28232	-5.463004	-5.377123	1.360514	1.402327	1.507067	1.207368	0.595065	0.616846	0.557522	0.634453	-0.803278	-0.807123	-0.696574	-0.724122
-7.824083	-8.206898	-8.168545	-8.17071	5.443124	5.548593	5.597721	5.381917	0.53577	0.616003	0.439133	0.523009	1.363211	1.186164	1.384691	1.293624
-4.386237	-4.766829	-4.787148	-4.773736	1.841196	1.940878	1.970425	1.802027	2.907477	2.80574	2.43736	2.787656	-0.177392	-0.288917	0.005526	-0.273155
-2.589121	-2.870419	-2.910763	-2.853688	0.671445	0.847683	0.83931	0.643197	6.057316	5.989702	5.907511	6.054327	-3.050838	-2.963558	-3.214111	-2.944494
-4.405889	-4.360035	-4.531728	-4.390135	2.032502	2.245119	2.153788	2.054414	2.514706	2.446124	2.503744	2.616357	-2.399264	-2.45467	-2.090975	-2.466606
-1.601734	-1.295382	-1.481299	-1.40495	2.67927	2.847028	2.756837	2.554857	4.57694	4.477159	4.612346	4.612704	-4.783697	-4.900968	-4.599634	-4.88754
-0.647775	-0.068617	-0.332179	-0.162172	1.146495	1.435381	1.247653	1.095878	1.642337	1.9821	1.884389	2.017673	-4.068238	-3.898362	-3.607394	-3.924789
-1.860414	-1.077429	-1.389982	-1.186891	-0.332578	-0.259974	-0.355976	-0.430639	6.461256	6.280095	6.42953	6.581694	-3.589912	-3.804382	-3.473832	-3.746759
1.21206	1.808057	1.563775	1.719799	1.964178	1.825614	1.785437	1.808479	3.12306	3.04163	3.132685	3.171202	-1.689281	-1.990345	-1.621756	-1.926381
1.533921	1.931487	1.75575	1.773921	-0.839871	-0.86173	-0.887768	-0.988276	5.126118	5.053208	5.209235	5.26868	-3.6143	-3.584283	-3.370384	-3.56937
1.610135	1.878045	1.752425	1.730605	-4.67214	-4.901343	-4.801141	-4.834826	8.223121	8.357182	8.463475	8.357414	-6.883062	-6.852127	-6.666145	-6.735942
4.554594	4.474995	4.453045	4.310863	-3.066376	-3.279338	-3.177714	-3.243829	4.55393	4.643652	4.46484	4.455469	-0.489176	-0.591448	-0.327812	-0.493599
4.743951	2.70403	3.425907	2.577387	-2.869035	-2.076727	-2.366028	-2.641815	1.465707	1.602559	1.426673	1.376712	-4.056807	-3.986856	-3.708363	-3.943162
1.141009	1.295724	1.262214	1.196905	1.924167	1.702093	1.805324	1.706878	1.823109	1.785278	1.406198	1.523998	-2.773099	-2.686493	-3.474041	-2.513636
3.594409	3.719672	3.713236	3.647977	-2.998446	-3.221262	-3.212702	-3.167651	5.238387	5.261033	5.359993	5.360705	-4.177121	-4.318637	-4.009309	-4.250831
4.232247	4.515667	4.397845	4.476015	-1.538124	-1.902185	-1.806834	-1.751709	8.218293	8.230069	8.242317	8.230346	-6.839771	-6.943829	-6.509821	-6.941267
1.277909	1.803556	1.571799	1.750546	-1.063674	-1.256628	-1.240059	-1.229756	4.651108	4.56642	4.619878	4.629235	-6.080849	-6.192633	-5.787463	-6.193456
0.259883	0.879827	0.570577	0.819672	-0.334818	-0.424944	-0.25498	-0.553216	4.859002	4.754472	4.502496	4.576361	-1.290644	-1.4539	-1.112013	-1.345523
-1.567611	-0.836835	-1.217019	-0.912459	0.388087	0.366039	0.394777	0.497449	3.098184	2.781292	2.537742	2.846392	-3.674257	-3.836847	-3.522579	-3.754083
-1.238565	-0.498299	-0.959046	-0.59502	-0.334295	-0.100388	-0.224101	-0.310608	4.32785	4.146797	4.327435	4.532705	-1.828795	-1.954227	-1.576156	-1.833162
-2.427234	-1.596882	-2.095041	-1.688471	-0.48481	-0.384842	-0.320812	-0.562477	7.762428	7.673233	7.697517	7.663461	-2.712715	-2.817521	-2.378666	-2.616989
-4.471291	-3.578371	-4.096932	-3.671892	3.645401	3.854306	3.822311	3.625333	2.651722	2.58303	2.435946	2.566123	-2.316144	-2.2472	-1.982875	-2.139985
-5.500117	-4.784573	-5.279145	-4.896134	-1.022798	-0.920255	-0.824884	-1.051412	2.843792	2.746033	2.707777	2.798637	-2.895966	-2.781929	-2.121756	-2.646747
-2.704247	-1.965424	-2.538743	-2.174918	-3.547599	-2.566985	-2.892693	-3.165436	5.887984	5.884894	5.874375	5.891427	-3.11901	-2.596091	-2.438234	-2.393904
-5.842809	-5.089533	-5.641416	-5.228929	-0.921417	-0.875415	-0.890025	-0.964589	-0.531875	-0.486082	-0.548819	-0.592904	-1.93613	-1.958548	-1.743493	-1.827841
-7.008173	-6.29239	-6.830937	-6.503221	-0.726003	-0.031181	-0.186975	-0.433095	4.034356	4.083585	4.032845	3.994781	-2.328103	-2.272759	-1.882761	-2.204075
-6.7556	-6.310524	-6.68775	-6.352586	0.184099	0.077951	0.188207	0.041573	5.513455	5.517742	5.400382	5.422871	-5.705463	-5.686504	-5.257525	-5.66922
-8.361832	-8.08935	-8.442679	-8.147841	2.792426	2.633762	2.86941	2.635096	6.754017	6.827205	6.510232	6.563685	-7.517685	-7.519464	-7.194335	-7.538928
-5.331942	-5.301578	-5.532195	-5.326063	5.666005	7.301172	7.068203	5.840363	2.586618	2.666761	2.25101	2.305888	-8.008448	-8.21368	-8.019384	-8.128178
-3.3063	-2.866481	-3.166033	-2.943224	0.718101	0.565079	0.649931	0.594202	1.288389	1.346354	1.225651	1.255036	-4.623546	-4.548691	-4.339145	-4.465811
-3.95182	-3.87507	-4.119309	-4.099675	3.862354	3.854801	3.927833	3.798077	1.002217	1.121686	0.812157	0.841196	-5.3859	-5.426708	-5.262941	-5.354861
-1.434217	-0.928297	-1.195651	-0.975602	6.101988	6.153441	6.172661	6.108149	-0.827159	-0.831955	-1.220626	-1.09733	-5.438787	-5.832154	-5.191081	-5.6995
0.228013	0.49455	0.373196	0.460448	1.464635	1.346286	1.310606	1.46017	-3.655269	-3.605216	-3.775822	-3.71127	-0.746534	-0.933806	-0.685687	-0.765733
3.056447	3.118874	3.098209	3.101183	-1.003101	-1.000231	-1.111845	-1.026429	-0.417262	-0.446259	-0.355191	-0.346333	-3.036331	-3.225484	-2.839035	-3.114387
4.322124	4.511827	4.392814	4.475632	-1.35713	-1.304757	-1.442082	-1.454644	2.077629	2.0575	2.006387	2.05998	-6.835561	-6.892919	-6.502914	-6.852162
1.31497	1.750647	1.515195	1.709749	-0.899206	-1.189928	-1.078564	-1.098734	3.001289	3.001017	3.007352	2.970261	-7.181763	-7.518794	-7.051158	-7.45632
-2.146302	-1.69919	-1.93329	-1.739394	0.709776	0.59263	0.747031	0.544091	-0.310012	-0.282638	-0.565806	-0.488362	-4.381863	-4.567217	-4.192499	-4.484259
-1.377016	-1.234105	-1.316533	-1.200712	-1.046923	-1.231751	-1.121446	-1.165114	3.226706	3.33381	3.109273	3.173996	-4.325429	-4.601331	-4.442553	-4.414605
-4.473978	-4.326859	-4.503185	-4.285267	0.904294	0.866646	0.851584	0.893663	4.53639	4.471475	4.47687	4.634249	-5.597685	-5.891437	-5.542586	-5.825749
-3.116147	-3.540714	-3.487971	-3.504588	1.824362	1.773477	1.80767	1.724114	0.145881	0.033383	-0.18711	-0.053626	-5.436579	-5.724999	-5.351739	-5.677793
-2.372936	-1.961233	-2.197247	-1.960767	-0.822152	-1.006599	-1.0148	-0.869208	1.265761	1.306438	1.362582	1.352375	-1.426323	-1.713512	-1.302068	-1.562719
0.303578	0.426116	0.248169	0.337204	-0.562827	-0.769432	-0.774093	-0.667149	0.905594	1.001336	1.052307	0.947299	-4.988187	-5.263291	-4.871281	-5.153247
2.234292	2.384661	2.306442	2.389035	-5.006132	-5.178597	-5.223477	-5.094847	5.423559	5.556268	5.615102	5.55391	-7.041047	-7.267228	-6.167847	-7.190685
4.701525	4.889615	4.824283	4.916324	-4.359409	-4.232944	-4.357223	-4.466744	3.011001	3.15703	3.238813	3.152375	-4.256522	-4.358356	-3.974825	-4.268743
2.59471	2.93838	2.777674	2.961296	-1.3762	-1.470715	-1.506653	-1.517788	8.411731	8.553392	8.524271	8.554905	-3.157288	-3.318597	-2.905811	-3.226094
1.06966	1.449976	1.249898	1.458318	-1.93393	-1.213876	-1.486284	-1.676692	7.031847	7.204098	7.046507	7.092376	-1.204277	-1.234178	-0.888875	-1.142399
-2.74061	-2.329782	-2.532961	-2.321308	-0.88127	-1.322521	-1.091856	-1.160174	4.638146	4.804157	4.575085	4.506278	-3.783893	-3.953922	-3.736147	-3.83579
-2.100591	-2.020301	-2.107375	-1.970526	3.630425	5.119497	4.775414	3.596234	3.611933	3.740348	3.458536	3.583216	-4.378515	-4.429712	-4.244516	-4.302701
-1.378022	-1.389691	-1.516703	-1.331156	1.160602	1.013368	1.104074	1.006268	1.405519	1.493461	1.213881	1.349319	-4.007348	-3.949459	-3.780647	-3.813665
-2.221965	-1.897974	-2.097852	-1.882532	0.40723	0.401434	0.28292	0.333546	4.922886	5.012447	4.93855	5.041397	-2.715283	-2.538447	-2.224885	-2.470714
-2.581037	-2.079965	-2.325572	-2.089862	1.509363	1.277287	1.303956	1.393085	7.212865	7.526602	7.523368	7.469668	-3.462925	-3.343038	-3.15436	-3.136278
-0.017867	0.951508	0.486519	0.923251	-0.688518	-1.060188	-1.018581	-0.765752	4.257225	4.401167	4.115016	4.251579	-4.430224	-4.441428	-4.163649	-4.279546
4.95632	2.959745	3.50866	2.955393	-3.121659	-3.235321	-3.346247	-3.280155	4.778345	4.790729	4.732231	4.888696	-3.264193	-3.273988	-2.93966	-3.13631
2.907058	3.240832	3.098092	3.249069	-4.349501	-4.454052	-4.571541	-4.534885	1.891459	1.98854	1.917992	1.976576	-0.129082	0.277382	0.336564	0.52234
